-----False Positives Indices-----
-----False Negatives Indices-----
18
95
253
478
673
873
1076
1272
1466
1655
1849
2047
2236
2433
2632
2832
3021
3219
3408
3603
3806
4007
4200
4401
4592
4785
4976
5172
5374
5571
5771
5963
6156
6347
6543
6742
6941
7134
7333
7522
7715
7914
8107
8302
8497
8699
8898
9095
9284
9481
9681
9882
10074
10273
10462
10656
10850
11042
11236
11433
11636
11827
12021
12214
12409
12606
12808
13005
13203
13391
13585
13781
13978
14173
14369
14568
14763
14957
15146
15339
15536
15736
15929
16127
16320
16512
16706
16905
17095
17296
17499
17695
17886
18080
18272
18471
18671
18866
19061
19253
19446
19636
19834
20026
20222
20418
20615
20809
21004
21192
21387
21591
21791
21990
22184
22374
22571
22728
22953
23154
23350
23554
23744
23936
24127
24328
24526
24725
24920
25116
25305
25498
25696
25894
26092
26288
26486
26680
26881
27069
27262
27461
27662
27855
28050
28241
28435
28629
28825
29020
29216
29417
29617
29813
30006
30206
30406
30610
30801
31003
31194
31389
31586
31782
31977
32177
32378
32569
32764
32960
33153
33348
33549
33748
33945
34135
34334
34530
34727
34927
35123
35323
35522
35720
35912
36105
36304
36506
36697
36899
37087
37283
37477
37676
37871
38069
38267
38466
38661
38856
39049
39249
39447
39643
39843
40036
40230
40421
40621
40811
41006
41206
41402
41595
41790
41981
42178
42380
42582
42777
42969
43165
43362
43560
43751
43953
44159
44355
44550
44747
44939
45135
45333
45530
45729
45921
46122
46306
46507
46701
46904
47101
47296
47489
47683
47876
48073
48270
48469
48666
49052
49243
49444
49631
49831
49998
50232
50423
50618
50815
51010
51210
51409
51604
51800
51994
52189
52384
52574
52776
52973
53362
53560
53750
53845
53940
54141
54341
54535
54720
54821
54923
55310
55505
55701
55894
56098
56290
56484
56676
56870
57069
57268
57445
57659
57848
58040
58238
58426
58625
58822
59024
59212
59602
59796
59995
60165
60396
60594
60784
60982
61176
61371
61569
61767
61966
62158
62355
62548
62742
62939
63142
63318
63537
63727
63921
64118
64310
64503
64706
64906
65101
65296
65487
65685
65884
66084
66279
66479
66666
66860
67050
67243
67438
67635
67833
68030
68230
68422
68614
68815
69020
69215
69411
69603
69804
69999
70194
70388
70590
70787
70985
71178
71371
71534
71764
71965
72160
72362
72555
72748
72942
73141
73335
73536
73737
73938
74131
74330
74526
74721
74923
75122
75322
75512
75703
75896
76100
76291
76488
76687
76884
77075
77274
77464
77661
77867
78064
78258
78456
78654
78845
79238
79436
79632
80023
80218
80410
80802
81004
81189
81394
81585
81781
81981
82179
82382
82579
82779
82976
83170
83359
83559
83758
83957
84350
84539
84734
84933
85123
85324
85524
85722
85914
86113
86306
86503
86707
86907
87101
87301
87442
87884
88078
88275
88468
88668
88859
89051
89240
89437
89637
89838
90032
90231
90423
90620
90822
91010
91210
91410
91615
91806
92003
92201
92397
92591
92788
92983
93152
93381
93571
93768
93964
94167
94362
94561
94753
94952
95145
95340
95537
95734
95831
95929
96127
96314
96508
96688
96794
96900
97094
97286
97491
97681
97874
98068
98264
98463
98663
98858
99059
99250
99445
99646
99823
100036
100236
100436
100637
100833
101024
101218
101418
101618
101811
102009
102185
102398
102596
102791
102993
103189
103392
103587
103789
103977
104173
104373
104583
104776
104974
105166
105365
105558
105750
105950
106131
106350
106527
106741
106940
107133
107329
107533
107730
107929
108317
108512
108707
108908
109103
109303
109499
109696
109885
110076
110278
110480
110672
110873
111062
111258
111451
111630
111846
112028
112251
112449
112646
112845
113037
113234
113437
113631
113827
114019
114211
114401
114596
114696
114796
114993
115191
115390
115590
115686
115782
115973
116175
116377
116575
116774
116967
117159
117352
117520
117746
117945
118148
118344
118536
118730
118924
119120
119320
119515
119717
119908
120102
120295
120498
120663
120897
121097
121299
121493
121687
121883
122083
122282
122480
122682
122872
123066
123216
123455
123649
123849
124053
124250
124444
124641
124834
124998
125237
125439
125635
125829
126024
126223
126420
126615
126817
127019
127213
127405
127603
127794
127991
128197
128396
128593
128784
128981
129181
129378
129520
129764
129971
130166
130361
130557
130748
130948
131153
131350
131544
131734
131932
132123
132321
132518
132715
132916
133114
133307
133503
133697
133902
134101
134296
134453
134688
134888
135082
135282
135475
135625
135868
136065
136260
136453
136648
136851
137050
137246
137443
137636
137831
138023
138224
138418
138616
138821
139016
139210
139403
139599
139804
140004
140198
140400
140591
140786
140981
141181
141374
141574
141776
141970
142168
142368
142561
142759
142923
143162
143362
143557
143752
143949
144146
144343
144539
144737
144936
145133
145322
145516
145714
145923
146116
146314
146502
146710
146903
147100
147299
147501
147697
147892
148087
148288
148479
148676
148880
149076
149280
149467
149659
149856
150053
150246
150442
150645
150839
151035
151232
151429
151627
151830
152030
152227
152417
152615
152813
153007
153199
153399
153599
153793
153987
154187
154379
154575
154779
154980
155175
155369
155569
155761
155958
156155
156357
156556
156753
156951
157147
157334
157530
157732
157933
158126
158289
158511
158710
158907
159096
159294
159494
159674
159891
160086
160282
160479
160678
160877
161075
161268
161459
161653
161850
162039
162239
162438
162636
162827
163026
163222
163414
163614
163818
164017
164212
164405
164607
164805
164996
165201
165397
165595
165796
165991
166180
166376
166586
166782
166981
167075
167169
167372
167547
167763
167961
168060
168160
168359
168563
168759
168951
169143
169338
169547
169749
169946
170139
170336
170527
170619
170712
170924
171123
171322
171520
171620
171721
171915
172103
172306
172515
172912
173108
173305
173400
173495
173700
173896
174095
174268
174382
174497
174691
174883
175079
175284
175484
175683
175883
176074
176272
176464
176557
176651
176863
177029
177268
177450
177558
177666
177860
178052
178253
178458
178656
178849
179040
179235
179432
179625
179820
180019
180193
180416
180612
180808
181004
181204
181407
181602
181807
181997
182189
182386
182568
182784
182982
183182
183374
183569
183760
183958
184153
184356
184536
184750
184918
185139
185336
185530
185725
185926
186131
186326
186519
186716
186909
187108
187316
187506
187704
187894
188090
188282
188475
188676
188874
189072
189265
189460
189660
189852
190050
190258
190456
190663
190852
191047
191244
191442
191636
191828
192029
192228
192422
192612
192807
193010
193212
193403
193600
193794
193991
194184
194384
194578
194777
194983
195180
195377
195573
195772
195972
196171
196367
196566
196761
196955
197148
197350
197542
197740
197911
198143
198341
198534
198732
198930
199134
199302
199532
199724
199920
200118
200313
200504
200689
200908
201102
201294
201492
201688
201883
202085
202282
202483
202675
202869
203070
203272
203466
203665
203836
204064
204238
204457
204658
204857
205058
205251
205455
205644
205838
206003
206233
206426
206625
206829
207028
207223
207416
207616
207814
208016
208214
208418
208605
208801
208997
209195
209389
209586
209789
209984
210178
210371
210568
210767
210969
211168
211371
211562
211758
211954
212153
212354
212526
212753
212950
213151
213340
213534
213736
213941
214132
214328
214520
214722
214917
215110
215310
215515
215718
215911
216110
216309
216506
216704
216904
217104
217307
217501
217690
217887
218082
218286
218484
218686
218879
219084
219273
219372
219471
219677
219878
220071
220256
220363
220471
220665
220869
221057
221259
221461
221658
221850
222049
222239
222436
222638
222839
223033
223231
223429
223620
223818
224011
224219
224414
224615
224810
224902
224994
225208
225384
225608
225777
225896
226015
226208
226400
226594
226800
226987
227186
227385
227592
227782
227976
228154
228374
228581
228780
228981
229136
229372
229566
229769
229965
230165
230365
230568
230761
230956
231152
231337
231558
231757
231908
232143
232343
232536
232742
232938
233136
233339
233542
233709
233930
234130
234331
234534
234732
234933
235123
235321
235515
235718
235912
236110
236315
236515
236712
236906
237108
237309
237510
237708
237908
238103
238307
238505
238703
238899
239107
239309
239505
239702
239899
240095
240294
240499
240698
240895
241086
241283
241486
241683
241881
242082
242289
242485
242682
242876
243079
243280
243482
243678
243881
244071
244266
244469
244664
244864
245064
245270
245463
245660
245857
246055
246256
246462
246662
246860
247052
247252
247452
247645
247850
248047
248249
248442
248643
248834
249031
249239
249440
249637
249837
250033
250226
250426
250622
250832
251030
251229
251427
251630
251822
252020
252228
252430
252626
252818
253017
253210
253410
253606
253805
254003
254203
254401
254595
254791
254998
255203
255401
255602
255797
255994
256188
256389
256584
256784
256990
257183
257380
257577
257774
257971
258175
258378
258576
258768
258970
259166
259365
259567
259766
259975
260174
260373
260569
260765
260966
261174
261366
261564
261760
261953
262153
262349
262539
262749
262958
263156
263353
263552
263751
263953
264160
264356
264555
264750
264945
265148
265343
265549
265743
265947
266141
266337
266531
266729
266940
267140
267337
267537
267741
267939
268140
268338
268537
268739
268943
269138
269333
269529
269730
269932
270132
270335
270527
270725
270922
271119
271315
271520
271725
271921
272121
272319
272513
272718
272925
273123
273325
273519
273717
273911
274112
274310
274506
274710
274909
275108
275301
275498
275705
275910
276105
276311
276505
276704
277102
277509
277905
278006
278108
278300
278497
278700
278903
279099
279271
279384
279498
279692
279893
280092
280294
280492
280698
280903
281100
281292
281491
281700
281903
282095
282294
282376
282458
282688
282886
283078
283285
283383
283482
283683
283875
284078
284271
284469
284673
284877
285079
285276
285469
285569
285669
285875
286069
286269
286436
286675
286868
287065
287261
287361
287462
287664
287859
288061
288256
288451
288645
288847
289037
289237
289442
289627
289843
290039
290237
290434
290636
290835
291041
291232
291425
291587
291817
292012
292211
292418
292611
292807
293005
293202
293399
293604
293806
294008
294196
294394
294592
294788
294982
295181
295385
295565
295788
295978
296176
296584
296778
296976
297173
297375
297570
297766
297969
298176
298379
298575
298774
298971
299176
299375
299579
299775
300170
300361
300568
300766
300965
301165
301374
301577
301769
301962
302168
302379
302579
302775
302973
303174
303368
303568
303766
303973
304173
304368
304570
304770
304966
305166
305376
305527
305769
305961
306166
306369
306565
306767
306968
307178
307374
307572
307770
307971
308171
308273
308376
308577
308761
308970
309166
309270
309374
309568
309774
309970
310177
310376
310573
310766
310967
311179
311385
311583
311784
311985
312178
312379
312578
312780
312978
313179
313376
313572
313763
313967
314175
314376
314574
314764
314963
315140
315363
315566
315772
315973
316172
316376
316574
316768
316970
317175
317371
317571
317764
317966
318169
318310
318438
318751
318965
319159
319359
319554
319756
319953
320163
320358
320556
320748
320950
321146
321340
321542
321735
321935
322132
322260
322328
322505
322720
322850
322928
323132
323326
323526
323724
323921
324120
324519
324700
324921
325122
325318
325512
325714
325914
326115
326309
326516
326707
326896
327105
327303
327506
327703
327915
328109
328309
328509
328707
328912
329120
329319
329516
329715
329917
330118
330518
330717
330923
331118
331316
331514
331718
331880
332120
332308
332524
332726
332867
333110
333316
333523
333725
333923
334129
334321
334517
334723
334926
335127
335331
335519
335719
335924
336122
336321
336521
336735
336931
337131
337327
337532
337736
337941
338138
338335
338534
338733
338937
339127
339331
339538
339736
339895
340133
340333
340532
340739
340945
341146
341343
341548
341743
341946
342147
342346
342551
342755
342952
343145
343345
343547
343753
343951
344153
344343
344539
344744
344938
345138
345343
345551
345747
345949
346146
346344
346548
346755
346954
347154
347348
347546
347746
347940
348145
348349
348548
348741
348938
349132
349327
349536
349745
349944
350140
350337
350535
350737
350938
351141
351341
351541
351737
351932
352123
352318
352525
352722
352920
353112
353313
353505
353702
353898
354102
354305
354501
354703
354899
355092
355293
355498
355695
355894
356086
356281
356474
356673
356869
357070
357275
357473
357674
357864
358059
358264
358474
358668
358871
359063
359259
359451
359644
359843
360042
360243
360395
360629
360820
361012
361208
361414
361613
361810
362000
362192
362388
362589
362783
362981
363186
363389
363586
363780
363980
364184
364390
364587
364790
364985
365181
365379
365581
365780
365983
366189
366392
366591
366787
366992
367203
367408
367606
367813
368010
368207
368410
368615
368820
369017
369224
369424
369622
369817
370020
370232
370433
370633
370835
371034
371234
371439
371642
371844
372051
372258
372458
372653
372854
373065
373271
373468
373678
373871
374069
374272
374474
374676
374878
375088
375285
375486
375684
375893
376101
376196
376292
376507
376690
376909
377087
377312
377477
377597
377717
377920
378116
378316
378515
378707
378912
379120
379215
379318
379489
379676
379901
380044
380127
380307
380526
380734
380934
381127
381330
381413
381497
381732
381930
382133
382313
382399
382485
382717
382913
383123
383314
383516
383719
383923
384129
384328
384522
384697
384933
385136
385339
385536
385731
385831
385932
386134
386325
386527
386736
386932
387129
387327
387528
387729
387935
388036
388137
388335
388531
388734
388876
389008
389326
389536
389941
390139
390337
390538
390735
390940
391142
391345
391533
391733
391939
392137
392337
392748
392927
393142
393347
393546
393751
393958
394160
394355
394555
394755
394953
395149
395357
395556
395757
395959
396158
396354
396539
396770
396970
397175
397372
397573
397769
397973
398175
398372
398579
398778
398977
399170
399370
399577
399777
399973
400178
400376
400573
400773
400972
401174
401375
401586
401785
401986
402184
402388
402572
402795
402968
403196
403393
403592
403794
403989
404195
404400
404600
404800
405002
405195
405364
405606
405807
406008
406211
406408
406607
406809
407012
407217
407419
407619
407825
408016
408217
408421
408625
408821
409030
409222
409421
409627
409822
410026
410228
410439
410639
410837
411034
411239
411447
411650
411852
412052
412229
412451
412656
412852
413058
413258
413461
413665
413860
414055
414262
414474
414670
414874
415077
415278
415474
415673
415883
416082
416294
416490
416689
416886
417089
417294
417482
417700
417904
418095
418501
418651
418898
419107
419309
419507
419707
419905
420106
420313
420517
420719
420910
421111
421310
421507
421705
421910
422115
422516
422711
422906
423112
423322
423520
423724
424119
424305
424524
424727
424929
425137
425329
425715
425927
426133
426327
426543
426738
426934
427133
427343
427536
427739
427949
428154
428353
428549
428716
428958
429164
429367
429571
429762
429961
430163
430364
430565
430768
430977
431172
431374
431572
431781
431985
432193
432397
432605
432799
432994
433204
433399
433602
433805
434015
434210
434408
434607
434813
435019
435223
435430
435625
435824
436026
436227
436427
436633
436847
437043
437240
437443
437648
437851
438059
438261
438463
438654
438856
439061
439256
439463
439666
439869
440067
440269
440473
440675
440884
441090
441301
441494
441697
441902
442106
442302
442506
442718
442914
443112
443313
443518
443721
443927
444131
444338
444533
444734
444941
445144
445349
445555
445765
445961
446167
446367
446573
446774
446979
447185
447387
447580
447777
447989
448188
448390
448596
448805
449007
449203
449405
449617
449831
450029
450231
450431
450636
450836
451033
451240
451450
451651
451848
452055
452259
452461
452663
452871
453079
453279
453479
453689
453892
454089
454297
454510
454717
454916
455112
455318
455527
455735
455932
456137
456341
456543
456744
456944
457156
457359
457565
457761
457972
458175
458377
458591
458797
458997
459195
459394
459602
459807
460005
460206
460418
460622
460824
461021
461228
461437
461643
461843
462055
462257
462457
462661
462867
463073
463276
463487
463690
463890
464087
464299
464510
464705
464912
465115
465318
465516
465719
465929
466131
466338
466538
466751
466951
467150
467354
467570
467777
467976
468179
468374
468581
468783
468983
469189
469394
469602
469797
469995
470204
470422
470622
470822
471022
471234
471439
471634
471841
472054
472260
472458
472664
472865
473066
473268
473476
473685
473883
474074
474286
474491
474692
474898
475112
475314
475514
475709
475919
476129
476339
476538
476749
476950
477147
477349
477548
477761
477969
478169
478576
478775
478977
479190
479398
479602
479799
480004
480209
480408
480614
480811
481034
481230
481437
481637
481829
482035
482247
482454
482652
482847
483046
483239
483459
483662
483866
484081
484283
484482
484679
484888
485099
485295
485498
485698
485904
486096
486295
486464
486709
486914
487113
487323
487517
487715
487919
488135
488338
488538
488735
488940
489140
489337
489547
489755
489946
490150
490360
490555
490757
490963
491172
491371
491568
491977
492177
492376
492590
492800
492997
493201
493403
493601
493804
494016
494221
494420
494614
494813
495022
495217
495420
495624
495795
496031
496232
496429
496534
496639
496845
497052
497256
497460
497557
497655
497856
498062
498263
498466
498675
498879
499073
499268
499475
499677
499781
499886
500090
500262
500491
500674
500786
500898
501104
501311
501512
501716
501921
502124
502320
502521
502737
502943
503142
503334
503539
503743
503940
504147
504328
504560
504761
504960
505165
505367
505573
505780
505987
506189
506383
506587
506795
506988
507196
507402
507612
507805
508006
508205
508415
508623
508822
509027
509213
509429
509629
509835
510046
510242
510447
510650
510860
511052
511251
511461
511673
511868
512069
512264
512471
512679
512870
513074
513283
513491
513688
513894
514057
514302
514506
514710
515112
515314
515518
515721
515922
516125
516335
516531
516734
516934
517133
517337
517549
517754
517950
518148
518291
518543
518744
518957
519169
519369
519567
519770
519971
520173
520382
520567
520791
520986
521188
521394
521592
521793
522002
522208
522404
522610
522817
523018
523222
523436
523636
523839
524039
524247
524449
524646
524854
525002
525252
525457
525663
525866
526065
526278
526486
526687
526883
527092
527299
527494
527698
527907
528121
528318
528524
528729
528926
529130
529339
529547
529749
529942
530139
530344
530553
530763
530963
531169
531375
531584
531781
531984
532199
532409
532613
532806
533014
533222
533418
533619
533827
534041
534233
534436
534638
534847
535051
535255
535460
535643
535873
536010
536146
536469
536684
536887
537090
537299
537494
537688
537895
538108
538307
538508
538706
538909
539110
539309
539517
539725
539932
540133
540341
540538
540746
540961
541163
541366
541572
541772
541969
542176
542376
542580
542787
542989
543195
543389
543592
543801
544009
544217
544421
544621
544827
545034
545230
545438
545650
545854
546056
546259
546460
546662
546873
547080
547282
547478
547684
547893
548088
548295
548508
548720
548918
549124
549331
549535
549742
549952
550162
550361
550557
550754
550965
551171
551371
551577
551783
551992
552188
552386
552592
552811
553018
553219
553414
553617
553833
554036
554240
554444
554654
554862
555061
555257
555467
555681
555879
556083
556283
556492
556690
556895
557103
557307
557521
557727
557928
558124
558331
558548
558753
558957
559158
559363
559564
559765
559965
560174
560387
560585
560786
560986
561196
561408
561616
561823
562031
562227
562427
562631
562838
563047
563186
563322
563558
563799
563996
564201
564414
564624
564827
565024
565221
565423
565635
565837
566039
566244
566454
566654
566857
567055
567267
567483
567683
567883
568084
568287
568489
568689
568898
569100
569308
569512
569720
569916
570118
570332
570545
570746
570946
571148
571356
571558
571760
571973
572164
572376
572580
572787
572988
573189
573398
573603
573814
574012
574211
574416
574623
574837
575037
575245
575442
575648
575854
576060
576267
576467
576678
576883
577082
577280
577485
577591
577697
577901
578090
578305
578495
578609
578723
578923
579130
579345
579555
579751
579948
580154
580366
580562
580766
580973
581182
581388
581581
581781
581998
582212
582408
582615
582816
583016
583225
583424
583629
583838
584049
584244
584444
584612
584764
585070
585271
585473
585679
585883
586079
586280
586495
586699
586903
587087
587315
587513
587715
587929
588139
588338
588535
588734
588940
589149
589342
589544
589735
589963
590170
590363
590564
590777
590987
591157
591388
591592
591789
591990
592193
592404
592570
592811
593016
593213
593411
593619
593826
594026
594230
594432
594627
594828
595039
595235
595436
595646
595853
596053
596251
596457
596667
596875
597073
597276
597481
597686
597886
598295
598501
598702
598853
599094
599302
599501
599717
599923
600125
600325
600533
600734
600936
601139
601350
601561
601760
601965
602170
602365
602571
602782
602988
603189
603363
603580
603789
603994
604202
604401
604606
604809
605020
605222
605426
605639
605847
606051
606232
606458
606639
606859
607072
607273
607479
607679
607890
608085
608291
608501
608704
608909
609098
609323
609521
609730
609910
610138
610344
610550
610759
610952
611151
611362
611574
611769
611972
612172
612381
612580
612759
612987
613202
613410
613606
613790
614021
614224
614433
614643
614844
615047
615251
615447
615652
615854
616062
616262
616449
616672
616873
617073
617283
617497
617696
617902
618105
618303
618508
618710
618921
619122
619329
619534
619735
619931
620121
620353
620555
620759
620960
621166
621368
621565
621772
621984
622192
622390
622593
622799
622969
623212
623419
623625
623832
624029
624225
624433
624636
624839
625043
625249
625449
625650
625852
626059
626275
626475
626680
626885
627089
627291
627490
627706
627914
628119
628324
628524
628724
628933
629140
629348
629557
629750
629957
630161
630316
630563
630775
630982
631182
631393
631594
631795
632007
632216
632419
632622
632828
633025
633226
633440
633646
633852
634057
634264
634458
634662
634871
635079
635283
635496
635699
635894
636081
636305
636519
636722
636925
637131
637331
637527
637731
637945
638149
638353
638539
638759
638965
639162
639370
639583
639795
639994
640200
640401
640604
640812
641026
641232
641428
641632
641834
642035
642234
642445
642657
642855
643055
643257
643430
643670
643881
644087
644295
644490
644688
644901
645105
645311
645512
645722
645924
646120
646318
646529
646741
646939
647147
647347
647546
647748
647953
648163
648366
648519
648762
648974
649174
649374
649577
649790
649992
